901
4001.24268007278
648.246020793915
1
129
8
17.2835512855807
16.8013916320176
16.627443541028
16.7433459670387
16.6943200353403
16.087818940581
16.0849014830593
15.944702376535
15.4632618192966
15.6268319831931
15.7836926805106
15.1684135006078
15.0055612528076
14.6497734473012
14.3125613254376
13.9901133489057
13.7466183460625
13.5531934996911
13.4810863964102
13.3430207707815
13.0327184840458
12.9414865464118
13.0715759028426
12.9726855412636
12.4845775698429
11.9233101408771
11.6229720202777
11.5008590788201
12.1795612807225
12.1004441434213
11.7523974016654
11.7282490915592
11.6557344252758
11.5859477260663
11.7147186069445
11.9504478023677
12.202435937527
12.1907994827881
11.9058135157546
11.8469867848106
11.9552342611151
12.2978289853084
12.2352545923307
11.7331836007731
11.7887197313036
11.914769408962
11.8306421751588
11.704944206971
11.5744921790698
11.5288308921592
11.7444614713741
11.9444271612503
11.7194216131638
11.4793214675262
11.6508057077119
11.603572006663
11.7408366859643
11.658570139298
11.3137402350994
11.169163870981
11.2923516200338
11.6401960656497
11.5719670861387
11.175233426909
11.1606823373822
10.9056015959165
11.3965698554612
11.5101170521411
11.0664256684466
10.6086847691377
10.257423158008
10.1047425175464
10.5018626356065
10.7848541330556
10.0648605499366
9.19552696836528
9.13756674859658
9.64279131614787
9.44602639553333
8.98591790190377
8.87076378865933
8.58805289541659
8.5046828242833
8.54870345859751
8.34799375983418
7.9926900960713
7.80176260962192
7.26781180936673
6.76420048181186
6.82024769815957
7.0199677306512
6.4428618570078
6.1897290352846
5.87414311741586
5.67894507554021
5.44045953253599
5.49363344565612
5.33480702110557
5.0353032137615
4.46363619870629
4.61253201425897
5.11737668024711
4.72054512854389
3.9465142541244
4.15188370642288
4.32377886034232
4.19620250148586
3.38650170621099
3.15033426533154
3.54258596246151
3.61445230237598
2.92349416544055
3.0669464104053
3.25732888112087
2.97748069967624
2.53492522996174
2.60504159405479
2.76984008320138
2.80982564096565
2.01339111329002
1.63901795553096
1.70252783143126
2.68591193781944
2.70598367784264
2.03799601930246
2.2465952500692
2.5861213695905
1.89217797968953
1.56738700196377
1.49463150757769
2.15157362271082
2.66413079210323
2.79828093791817
2.47835348148801
1.83251972738876
1.7055839469915
2.13991057008217
1.77369564388898
1.64167184517541
1.52248659609403
1.55551689751259
2.18174404624155
2.25641981385185
1.90402217072232
2.07295575129362
1.98438516162015
2.18240415413864
1.91677635062596
1.68327313681004
1.51399070101521
1.88477100593172
2.19601700556267
2.21522161741386
2.05302022324359
1.51849823225554
1.36245315125733
2.1863407336798
2.07852888978944
1.72373873791766
1.95892557101793
2.53596165119407
2.05260969485667
1.8592890839963
1.76614712310757
1.99205893978775
1.90616093945929
1.91917547765543
1.88990276276373
2.05218760251284
2.1680150873192
1.99111097410818
1.7122736490506
1.78818446001327
1.78361567889707
2.16815941398921
2.46994140568594
2.02044648503225
1.15068210946487
1.64226404978922
2.14070786054469
1.90975810685327
1.90009303453348
2.15862490452141
1.76799981438877
1.62122040047127
1.87366248247054
2.05555730840521
1.71270647868901
1.60742498830029
2.22829349723139
2.01722250063677
1.24393116692887
1.59320967508614
2.2096398434795
2.35968528286417
1.89405121553645
1.57106840196625
1.83926485207839
1.76208737144752
1.65998897436083
2.07323997423681
1.9704532250056
1.56793717247045
1.38811419721023
1.84109428615558
2.37070249244435
2.58356863254987
2.54007933283595
2.50468253523246
2.14215759576775
2.27736173253006
2.62705291792063
2.51847796307003
1.9184003279163
2.30075907625374
2.57110036516692
2.43784406988442
2.54643326363922
2.69885227295781
2.40361643121721
2.26015282537387
2.26540283659309
2.5148756416105
2.49680375640013
2.3595030212653
2.24671779090081
2.15415478969691
2.31891849073202
2.55741479278316
2.40235847755665
2.48982763795945
2.39584401872677
2.44095842061263
2.47708396985871
2.49391005491209
2.31360787476468
2.20520282535059
2.30207430989056
2.51451723471667
2.38508831980899
2.3546367816385
2.71158507628848
2.8935586000742
2.50623020017673
2.57208847848376
2.33555142351723
2.02852515615083
1.98967589947585
2.28442626159976
2.52134199002193
2.50912021441086
2.43931184083202
2.43697773878791
2.38586919179395
2.43983182776783
2.50328277621106
2.62619498179982
2.4831695200865
2.26151215284019
2.19208288170981
2.36513117343044
2.26333252457147
2.1870423518894
2.51286586120243
2.73787823839058
2.38708153487021
2.108230738305
2.13534879348184
2.37462184830417
2.4174266680752
2.50722971364448
2.30881310016965
2.24437710022481
2.5029131954025
2.68068996496809
2.40265570880963
2.39249931196074
2.46931110830069
2.50648058745385
2.500158453801
2.49880347131338
2.52934732534327
2.45435248383379
2.31892374236615
2.3136076316127
2.3202319154848
2.57028493099327
2.67308917451104
2.52130182688871
2.25818470081048
2.317809476661
2.37810444974751
2.43496085771652
2.50179274052001
2.53520707974537
2.4038241843204
2.37454909188396
2.29342424578865
2.17761139186615
2.1485407451326
2.36476783424158
2.38762597525168
2.4469416419116
2.38505082052981
2.32855086342443
2.31396376056053
2.48565726921397
2.43057777869796
2.28218206469451
2.38901062226822
2.48752184361498
2.40313445113965
2.37374958401195
2.3792932117085
2.50906755348584
2.4794850006512
2.39880179220749
2.19436782734305
2.15250548434376
2.310061614781
2.37099852707246
2.20066805194319
2.16882770897713
2.18721735781678
2.30399850090486
2.32131246616767
2.43351142166826
2.40988578231088
2.39900157526712
2.40935450461438
2.38178403814139
2.37142499238149
2.29357339845601
2.16020969718697
2.11387429035891
2.14667515263302
2.26167023584494
2.49034737185115
2.6703022158648
2.38650709745918
2.29657691020135
2.30770824138609
2.17239793221666
2.34085952504132
2.59922614326699
2.57225383897709
2.48927306253887
2.41545478706732
2.4523390444619
2.27691961004697
2.27242051973469
2.45235682517751
2.59960579935795
2.58813903819916
2.42883831885198
2.3405284959414
2.40593217922143
2.40497821336907
2.39711018105063
2.53165815801113
2.59697839576912
2.34285389184437
2.31043497471124
2.54643073265944
2.65926789585785
2.53599323337882
2.3384676471809
2.38696563124542
2.55829705674777
2.39111312743748
2.40591616277099
2.56093291811832
2.60709246532662
2.42263093052842
2.31662649262253
2.47719758930938
2.60095448227378
2.58529317170189
2.68270147779512
2.48987767072778
2.44255814339192
2.5319468569272
2.55383341875404
2.576780522368
2.55131461787726
2.62842191041739
2.76084395782901
2.58629638852511
2.54129514822179
2.55958269373594
2.48690723337011
2.50061214582618
2.60901502413766
2.53088351985486
2.50784984328615
2.4907815090989
2.53117932526085
2.47745749101521
2.48119473188344
2.62467920327713
2.52853135081657
2.40296955663374
2.4809342244921
2.46831701334991
2.52451232795213
2.58498564011285
2.5188432605765
2.45643423689934
2.44930706890871
2.29822957165064
2.39609830154146
2.47688760101235
2.44011896180042
2.36628142282726
2.38363684840853
2.31032639835045
2.41386012812673
2.58817716628944
2.56391133571134
2.41873327065413
2.4380530665585
2.35252843125583
2.31254841329955
2.39527500292047
2.51651551762698
2.43569409251807
2.38496021196722
2.32729729022955
2.24069909026316
2.21569854211772
2.20332252343163
2.17425776960568
2.35583606428795
2.35519435916448
2.28938329204685
2.18084808572914
2.29003239958739
2.52690581689249
2.49221790532122
2.34098965218223
2.39348534066702
2.41842282248304
2.58518791465911
2.36097539162663
2.11607829890538
2.21287356233171
2.31077537189197
2.01735342252168
2.25053658543455
2.37575625332316
2.38554389895022
2.39013981101593
2.38580900023813
2.5756448973275
2.56381148766457
2.37319577869039
2.46581048399041
2.43184133229219
2.41597720007098
2.3367326521004
2.2473521055462
2.31975563540963
2.38249959066854
2.33393012685088
2.42271813320023
2.49507538654479
2.50681250749443
2.39188938496854
2.38584182324724
2.49409440070422
2.61264052871852
2.5748294632984
2.52935991854743
2.52951771124777
2.39751293450553
2.41546240330279
2.4953597700511
2.4880394971755
2.49994242564417
2.44548832100722
2.50613195875521
2.3885364403858
2.33329914343686
2.41461909100892
2.47281767158578
2.41810776936282
2.42032061279084
2.45318761823891
2.55725026633991
2.59259459208787
2.50966404727455
2.4871094469838
2.61113654713949
2.56192364843502
2.4693212157458
2.44873581846753
2.48332817922413
2.40071362076325
2.40280874467389
2.5347245215066
2.62630400387456
2.571593118786
2.53321068700267
2.49145254099406
2.4372920422839
2.43687404828636
2.53794315909436
2.51275601413718
2.51333118753389
2.64486817990102
2.69459838239514
2.53618762136676
2.52035719638351
2.57059142165249
2.5101920160453
2.40060358595072
2.54033223402077
2.55796303534968
2.39344485968329
2.44591441179829
2.4755287371854
2.47366784137324
2.50240390147719
2.41808207065758
2.33888364280495
2.39408170661346
2.34368950356746
2.283758066082
2.37564526693634
2.42981226356597
2.40869261905454
2.34925939430478
2.33684759881802
2.24074881022529
2.27794181280813
2.39408604154679
2.36728648311227
2.33764436089937
2.33694878536531
2.29785931904461
2.21039463876942
2.08580543666854
2.18259699124461
2.30789411462665
2.32199857323509
2.2233163566
2.24915772815726
2.26140554733708
2.26766939119277
2.25072521618495
2.26858233499872
2.26027585558086
2.22207427149372
2.21682385474786
2.26210153322238
2.20098142024359
2.15621967934544
2.18455365599554
2.23153039285265
2.16766036922129
2.22928258722929
2.22822438342518
2.06275716016606
2.00256044387215
2.07387213610378
2.14441641728566
2.09949721106102
2.04911792555948
2.13706829299153
2.03580207976754
1.96360187817821
1.96989194451078
2.04279093581495
2.12346278366938
2.09891053673733
2.09981478451724
2.11272203052427
1.97524276951438
2.03010420614797
1.98447761329036
1.93347197186563
1.99493311257366
2.00870212082825
2.03694082280198
2.12503788353409
1.94877756487968
1.93989027947417
1.97133044789477
1.87753657948796
1.89043003404885
1.89493517964114
1.88941892009246
1.96056555210144
1.90527998062987
1.89857891990116
1.92701882788949
1.95729911393834
1.85335266568826
1.91800799154373
2.0603461110527
2.07875479962407
2.12218983061841
2.30070997654208
2.42523382167273
2.4327696457716
2.48958192464836
2.47993463787401
2.48024707229665
2.59154554227169
2.65663496534012
2.48950230341008
2.19548547532917
2.12025863737032
2.25681208248945
2.41681259345662
2.37595452489257
2.5170626645219
2.46518944818709
2.44535183257329
2.33547725667565
2.0472840031608
1.93651038115129
2.13487096535624
2.27198475009965
2.05341292779106
1.91529614973309
2.03562574076021
2.05227888526217
2.08448016443995
1.97603272374555
1.90772915169035
1.94111157908894
1.883851416414
1.86797245653945
1.93714011036036
1.8178307945293
1.78548177627857
1.70392378193256
1.68377669324031
1.64938406793758
1.67685028976075
1.65692634702956
1.83235701868608
1.93512685734734
1.79830640596386
1.73230474807559
1.81589025892315
1.7643024411631
1.83983284261049
1.90404807647456
1.91004656681703
2.038235391605
2.18304151561421
2.11400607295023
1.96550703886471
1.81632078762742
1.9666950422596
1.95850982732028
1.83923451794888
1.95283279441798
2.04938358006937
1.84810157233148
1.77461421541224
1.82808254535391
1.97254429573498
1.97380587847011
1.89895014355987
1.69852050187105
1.66349751222608
1.72733011241831
1.8278666859499
1.61862990977453
1.61100815714043
1.58288608499345
1.5493283937691
1.51924960479685
1.52769705012862
1.49155225679843
1.46420332614649
1.48316176148578
1.4301208241294
1.38681965794745
1.44146935327743
1.44260309183802
1.37081788777325
1.17255162699859
1.07524138576449
1.18069044157789
1.36753514913617
1.23949467629822
1.19506846725891
1.25837862084325
1.41657186469354
1.53427912104732
1.57582177428359
1.61967627885644
1.70686669308087
1.65508191542153
1.52282098691274
1.56910193929257
1.65605808247276
1.51694183611824
1.55697643631003
1.54213737677597
1.57697884451477
1.5015216627484
1.3576411025084
1.43820318356352
1.48091358592851
1.39098374713428
1.33552673503655
1.22033664948631
1.21398910717821
1.29375079727556
1.2667254230694
1.10538765980485
1.08491974240931
1.12323700601336
1.14561732235771
1.11502845682858
1.0426296244048
0.98945928788872
0.979929779068868
0.981421243841626
0.984323098457199
1.01014326796577
1.00481612972448
0.969203382462558
1.06370788882651
1.09599588990762
0.987494725651466
0.900939562059665
0.962373042127382
1.12869645361189
1.11640288672218
0.989124171689179
0.999711666535295
1.09299180599542
1.21544268609423
1.25168478655702
1.21239462002688
1.32872127163558
1.49014195847887
1.57983720631164
1.87231960301773
2.09465334951655
2.1389216549731
2.18192455415822
2.33096011631928
2.35910582713401
2.36674295118039
2.48183229631228
2.65227319740239
2.69539387256413
2.78461277520279
3.03196263785068
3.45979510282719
4.03540399508946
4.65431043203963
5.2474301723532
5.74631829089396
5.95424779032974
5.9082386836126
5.71805319640006
5.53851873622255
5.28481154829315
5.16924163728458
5.37136778705177
5.65992218990412
5.6760769132787
5.4533989042713
5.34535006544036
5.37357567331797
5.24802937950225
4.98241648735171
4.91077374343577
5.10115988284366
5.50062547143321
5.69027225477187
5.52970605983187
5.45500813706509
5.64188555232537
5.95281346771429
6.18200475742834
6.26211188643952
6.14730092818971
6.07831874569807
6.04409493457837
5.94764839572121
5.78749402776094
5.50299847690517
5.17540717526601
5.20664145087215
5.41224840855064
5.49364078150679
5.47833251284575
5.34757426578114
5.13902306163923
4.97590418510916
4.77731304926204
4.51114877589769
4.24917191112006
4.10854458593899
3.94001982563503
3.79989936869497
3.61960519749822
3.40754395023757
3.21417254928802
2.91913029733173
2.6758646915906
2.56695189172112
2.50904183711647
2.60399096030687
2.85512469519539
2.89779955669607
2.67431905758845
2.65668227155352
3.00958419987683
3.37175048187731
3.58928045417206
3.47881246726727
3.27791771452801
2.96381572759728
2.73520876596695
2.89236846439114
3.11554722549028
3.28793908734729
3.32920193685453
3.58748033700167
3.88488721976937
3.72159850741492
3.54727965983251
3.44547700618006
3.33569242599938
3.30967711715417
3.27470350098061
3.26672345678663
3.23671168124957
3.14885794631827
2.94719118740819
2.70344949914636
2.53674339442832
2.69841809140608
2.74357474343094
2.42503619332455
2.40560339498077
2.66787385601643
2.54182034954089
2.32450652562843
2.43297136953727
2.43595272067701
2.36628733647933
2.2376525174583
2.35658707277039
2.27061188253215
2.14844638695263
2.29107034289453
2.65665994853671
2.82459114681042
2.40223976653738
1.9972758746013
2.34590824454433
2.61931329323284
2.54001027986477
2.5593837964084
2.62985717361649
2.29795725243738
2.47026098255605
2.9414658274865
2.90651334705628
2.545604498255
2.42776386270439
2.60186344350051
2.3876590397254
2.18262223007232
2.45810318119698
2.22159247312166
2.56598109080371
3.12019798489602
2.61630760651283
1.56512914981603
1.40657097876272
2.14401204149022
2.65298536721979
1.60671373769967
1.40681622067617
1.88461203091043
2.04199535729104
2.02721210769141
2.28268989576757
1.90365448015601
1.55666251711233
1.32357272723498
2.05294739236478
2.96785398315281
6.2845686114236
6.75561579032076
4.10777731291787
0.714496327159954
1E-05
1E-05
